hour,temp
0,-5
0.5,-5
1,-5
1.5,-5
2,-5
2.5,-5
3,-5
3.5,-5
4,-5
4.5,-5
5,-5
5.5,-5
6,-5
6.5,-5
7,-2
7.5,0
8,2
8.5,4
9,6
9.5,8
10,10
10.5,10
11,10
11.5,10
12,10
12.5,10
13,10
13.5,10
14,10
14.5,10
15,10
15.5,10
16,10
16.5,10
17,10
17.5,10
18,10
18.5,10
19,10
19.5,10
20,10
20.5,10
21,10
21.5,10
22,10
22.5,10
23,10
23.5,10